                           time                     pos                     vel                    temp                     den                    pres                    ener                    entr                      cs
      1  1.0175522000000001E-04  0.0000000000000000E+00  0.0000000000000000E+00  1.002631E+09  2.051720E+09  1.271492E+27  1.638951E+18  6.757439E+07  9.107713E+08  1.371429E+01  2.022900E-26
      2  1.0175522001017553E-04  0.0000000000000000E+00  0.0000000000000000E+00  1.002631E+09  2.051720E+09  1.271492E+27  1.638951E+18  6.757439E+07  9.107713E+08  1.371429E+01  2.022901E-26
      3  1.0175522003052657E-04  0.0000000000000000E+00  0.0000000000000000E+00  1.002631E+09  2.051720E+09  1.271492E+27  1.638951E+18  6.757439E+07  9.107713E+08  1.371429E+01  2.022904E-26
      4  1.0175522007122866E-04  0.0000000000000000E+00  0.0000000000000000E+00  1.002631E+09  2.051720E+09  1.271492E+27  1.638951E+18  6.757439E+07  9.107713E+08  1.371429E+01  2.022909E-26
      5  1.0175522015263284E-04  0.0000000000000000E+00  0.0000000000000000E+00  1.002631E+09  2.051720E+09  1.271492E+27  1.638951E+18  6.757439E+07  9.107713E+08  1.371429E+01  2.022919E-26
      6  1.0175522031544119E-04  0.0000000000000000E+00  0.0000000000000000E+00  1.002631E+09  2.051720E+09  1.271492E+27  1.638951E+18  6.757439E+07  9.107713E+08  1.371429E+01  2.022940E-26
      7  1.0175522064105789E-04  0.0000000000000000E+00  0.0000000000000000E+00  1.002631E+09  2.051720E+09  1.271492E+27  1.638951E+18  6.757439E+07  9.107713E+08  1.371429E+01  2.022982E-26
      8  1.0175522129229130E-04  0.0000000000000000E+00  0.0000000000000000E+00  1.002631E+09  2.051720E+09  1.271492E+27  1.638951E+18  6.757439E+07  9.107713E+08  1.371429E+01  2.023065E-26
      9  1.0175522259475811E-04  0.0000000000000000E+00  0.0000000000000000E+00  1.002631E+09  2.051720E+09  1.271492E+27  1.638951E+18  6.757439E+07  9.107713E+08  1.371429E+01  2.023231E-26
     10  1.0175522519969174E-04  0.0000000000000000E+00  0.0000000000000000E+00  1.002631E+09  2.051720E+09  1.271492E+27  1.638951E+18  6.757439E+07  9.107713E+08  1.371429E+01  2.023564E-26
     11  1.0175523040955900E-04  0.0000000000000000E+00  0.0000000000000000E+00  1.002631E+09  2.051720E+09  1.271492E+27  1.638951E+18  6.757439E+07  9.107713E+08  1.371429E+01  2.024229E-26
     12  1.0175524082929354E-04  0.0000000000000000E+00  0.0000000000000000E+00  1.002631E+09  2.051720E+09  1.271492E+27  1.638951E+18  6.757439E+07  9.107713E+08  1.371429E+01  2.025559E-26
     13  1.0175526166876259E-04  0.0000000000000000E+00  0.0000000000000000E+00  1.002631E+09  2.051720E+09  1.271492E+27  1.638951E+18  6.757439E+07  9.107713E+08  1.371429E+01  2.028219E-26
     14  1.0175530334770070E-04  0.0000000000000000E+00  0.0000000000000000E+00  1.002631E+09  2.051720E+09  1.271492E+27  1.638951E+18  6.757439E+07  9.107713E+08  1.371429E+01  2.033538E-26
     15  1.0175538670557692E-04  0.0000000000000000E+00  0.0000000000000000E+00  1.002631E+09  2.051720E+09  1.271492E+27  1.638951E+18  6.757439E+07  9.107713E+08  1.371429E+01  2.044179E-26
     16  1.0175555342132937E-04  0.0000000000000000E+00  0.0000000000000000E+00  1.002631E+09  2.051720E+09  1.271492E+27  1.638951E+18  6.757439E+07  9.107713E+08  1.371429E+01  2.065468E-26
     17  1.0175588685283427E-04  0.0000000000000000E+00  0.0000000000000000E+00  1.002631E+09  2.051720E+09  1.271492E+27  1.638951E+18  6.757439E+07  9.107713E+08  1.371429E+01  2.108057E-26
     18  1.0175655371584406E-04  0.0000000000000000E+00  0.0000000000000000E+00  1.002631E+09  2.051720E+09  1.271492E+27  1.638951E+18  6.757439E+07  9.107713E+08  1.371429E+01  2.193134E-26
     19  1.0175788744186364E-04  0.0000000000000000E+00  0.0000000000000000E+00  1.002631E+09  2.051720E+09  1.271492E+27  1.638951E+18  6.757439E+07  9.107713E+08  1.371429E+01  2.360462E-26
     20  1.0176055489390281E-04  0.0000000000000000E+00  0.0000000000000000E+00  1.002631E+09  2.051720E+09  1.271492E+27  1.638951E+18  6.757439E+07  9.107713E+08  1.371429E+01  2.676111E-26
     21  1.0176588979798114E-04  0.0000000000000000E+00  0.0000000000000000E+00  1.002631E+09  2.051720E+09  1.271492E+27  1.638951E+18  6.757439E+07  9.107713E+08  1.371429E+01  3.222483E-26
     22  1.0177655960613782E-04  0.0000000000000000E+00  0.0000000000000000E+00  1.002631E+09  2.051720E+09  1.271492E+27  1.638951E+18  6.757439E+07  9.107713E+08  1.371429E+01  4.061289E-26
     23  1.0179789922245117E-04  0.0000000000000000E+00  0.0000000000000000E+00  1.002631E+09  2.051720E+09  1.271492E+27  1.638951E+18  6.757439E+07  9.107713E+08  1.371429E+01  5.204946E-26
     24  1.0184057845507785E-04  0.0000000000000000E+00  0.0000000000000000E+00  1.002631E+09  2.051720E+09  1.271492E+27  1.638951E+18  6.757439E+07  9.107713E+08  1.371429E+01  6.633185E-26
     25  1.0192593692033123E-04  0.0000000000000000E+00  0.0000000000000000E+00  1.002631E+09  2.051720E+09  1.271492E+27  1.638951E+18  6.757440E+07  9.107713E+08  1.371429E+01  8.320713E-26
     26  1.0209665385083798E-04  0.0000000000000000E+00  0.0000000000000000E+00  1.002632E+09  2.051720E+09  1.271492E+27  1.638951E+18  6.757440E+07  9.107714E+08  1.371429E+01  1.025166E-25
     27  1.0243808771185149E-04  0.0000000000000000E+00  0.0000000000000000E+00  1.002633E+09  2.051720E+09  1.271492E+27  1.638951E+18  6.757442E+07  9.107714E+08  1.371429E+01  1.241771E-25
     28  1.0312095543387850E-04  0.0000000000000000E+00  0.0000000000000000E+00  1.002635E+09  2.051720E+09  1.271492E+27  1.638951E+18  6.757445E+07  9.107714E+08  1.371429E+01  1.481114E-25
     29  1.0448669087793252E-04  0.0000000000000000E+00  0.0000000000000000E+00  1.002638E+09  2.051720E+09  1.271492E+27  1.638951E+18  6.757450E+07  9.107714E+08  1.371429E+01  1.741703E-25
     30  1.0721816176604055E-04  0.0000000000000000E+00  0.0000000000000000E+00  1.002645E+09  2.051721E+09  1.271493E+27  1.638951E+18  6.757461E+07  9.107715E+08  1.371430E+01  2.021295E-25
     31  1.1268110354225661E-04  0.0000000000000000E+00  0.0000000000000000E+00  1.002660E+09  2.051723E+09  1.271494E+27  1.638951E+18  6.757484E+07  9.107717E+08  1.371431E+01  2.317715E-25
     32  1.2360698709468874E-04  0.0000000000000000E+00  0.0000000000000000E+00  1.002689E+09  2.051725E+09  1.271497E+27  1.638952E+18  6.757529E+07  9.107721E+08  1.371433E+01  2.629011E-25
     33  1.4545875419955299E-04  0.0000000000000000E+00  0.0000000000000000E+00  1.002747E+09  2.051731E+09  1.271503E+27  1.638954E+18  6.757619E+07  9.107729E+08  1.371437E+01  2.953590E-25
     34  1.8916228840928150E-04  0.0000000000000000E+00  0.0000000000000000E+00  1.002862E+09  2.051742E+09  1.271514E+27  1.638956E+18  6.757798E+07  9.107745E+08  1.371445E+01  3.290163E-25
     35  2.7656935682873854E-04  0.0000000000000000E+00  0.0000000000000000E+00  1.003094E+09  2.051762E+09  1.271535E+27  1.638962E+18  6.758158E+07  9.107776E+08  1.371462E+01  3.637887E-25
     36  4.5138349366765263E-04  0.0000000000000000E+00  0.0000000000000000E+00  1.003556E+09  2.051797E+09  1.271572E+27  1.638974E+18  6.758878E+07  9.107834E+08  1.371495E+01  3.995857E-25
     37  8.0101176734548069E-04  0.0000000000000000E+00  0.0000000000000000E+00  1.004480E+09  2.051848E+09  1.271630E+27  1.638999E+18  6.760321E+07  9.107936E+08  1.371563E+01  4.365005E-25
     38  1.5002683147011370E-03  0.0000000000000000E+00  0.0000000000000000E+00  1.006336E+09  2.051903E+09  1.271708E+27  1.639051E+18  6.763224E+07  9.108104E+08  1.371702E+01  5.610326E-25
     39  2.8987814094124497E-03  0.0000000000000000E+00  0.0000000000000000E+00  1.010079E+09  2.051834E+09  1.271716E+27  1.639166E+18  6.769094E+07  9.108310E+08  1.371997E+01  6.892842E-25
     40  5.6958075988350742E-03  0.0000000000000000E+00  0.0000000000000000E+00  1.017773E+09  2.051573E+09  1.271633E+27  1.639441E+18  6.780940E+07  9.108644E+08  1.372664E+01  8.204664E-25
     41  1.1289859977680325E-02  0.0000000000000000E+00  0.0000000000000000E+00  1.032646E+09  2.048213E+09  1.269104E+27  1.640245E+18  6.803459E+07  9.107165E+08  1.374348E+01  9.495728E-25
     42  2.1289859754162907E-02  0.0000000000000000E+00  0.0000000000000000E+00  1.060275E+09  2.042741E+09  1.265016E+27  1.642860E+18  6.839005E+07  9.104864E+08  1.378898E+01  1.079064E-24
     43  3.1289859530645489E-02  0.0000000000000000E+00  0.0000000000000000E+00  1.090720E+09  2.041587E+09  1.264482E+27  1.647486E+18  6.864446E+07  9.105677E+08  1.386774E+01  1.225335E-24
     44  4.1289859307128071E-02  0.0000000000000000E+00  0.0000000000000000E+00  1.123325E+09  2.040816E+09  1.264187E+27  1.655284E+18  6.871707E+07  9.106464E+08  1.400380E+01  1.380201E-24
     45  5.1289859083610653E-02  0.0000000000000000E+00  0.0000000000000000E+00  1.158012E+09  2.039453E+09  1.263251E+27  1.667884E+18  6.849538E+07  9.106216E+08  1.423146E+01  1.539927E-24
     46  6.1289858860093235E-02  0.0000000000000000E+00  0.0000000000000000E+00  1.195093E+09  2.038201E+09  1.262181E+27  1.686717E+18  6.786990E+07  9.105162E+08  1.458913E+01  1.704669E-24
     47  7.1289858636575817E-02  0.0000000000000000E+00  0.0000000000000000E+00  1.234578E+09  2.037037E+09  1.260925E+27  1.711677E+18  6.681664E+07  9.103148E+08  1.509819E+01  2.109858E-24
     48  8.1289858413058400E-02  0.0000000000000000E+00  0.0000000000000000E+00  1.276683E+09  2.036620E+09  1.260090E+27  1.740570E+18  6.547174E+07  9.100920E+08  1.573662E+01  3.096047E-24
     49  9.1289858189540982E-02  0.0000000000000000E+00  0.0000000000000000E+00  1.320930E+09  2.036287E+09  1.259288E+27  1.769821E+18  6.411099E+07  9.098613E+08  1.642712E+01  4.178301E-24
     50  1.0128985796602356E-01  0.0000000000000000E+00  0.0000000000000000E+00  1.366242E+09  2.035883E+09  1.258600E+27  1.794833E+18  6.305649E+07  9.096929E+08  1.704784E+01  7.536738E-24
     51  1.1128985774250615E-01  0.0000000000000000E+00  0.0000000000000000E+00  1.411587E+09  2.034309E+09  1.257262E+27  1.812630E+18  6.249251E+07  9.095605E+08  1.750567E+01  1.194620E-23
     52  1.2128985751898873E-01  0.0000000000000000E+00  0.0000000000000000E+00  1.457592E+09  2.035949E+09  1.258888E+27  1.823774E+18  6.235909E+07  9.097867E+08  1.779881E+01  2.287776E-23
     53  1.3128985729547132E-01  0.0000000000000000E+00  0.0000000000000000E+00  1.502264E+09  2.037209E+09  1.260405E+27  1.830136E+18  6.251547E+07  9.100637E+08  1.796816E+01  3.659002E-23
     54  1.4128985707195391E-01  0.0000000000000000E+00  0.0000000000000000E+00  1.546058E+09  2.038998E+09  1.262485E+27  1.833647E+18  6.283673E+07  9.104277E+08  1.806176E+01  4.656023E-23
     55  1.5128985684843649E-01  0.0000000000000000E+00  0.0000000000000000E+00  1.593469E+09  2.038638E+09  1.262943E+27  1.835591E+18  6.330678E+07  9.106916E+08  1.811330E+01  5.107855E-23
     56  1.6128985662491907E-01  0.0000000000000000E+00  0.0000000000000000E+00  1.686266E+09  2.037348E+09  1.263511E+27  1.836941E+18  6.436368E+07  9.112241E+08  1.814855E+01  5.578229E-23
     57  1.7128985640140165E-01  0.0000000000000000E+00  0.0000000000000000E+00  1.785726E+09  2.036315E+09  1.264478E+27  1.837789E+18  6.550150E+07  9.118459E+08  1.816985E+01  5.844081E-23
     58  1.8128985617788423E-01  0.0000000000000000E+00  0.0000000000000000E+00  1.891276E+09  2.035000E+09  1.265393E+27  1.838246E+18  6.670617E+07  9.125144E+08  1.818048E+01  5.859525E-23
     59  1.9128985595436682E-01  0.0000000000000000E+00  0.0000000000000000E+00  2.006011E+09  2.033768E+09  1.266612E+27  1.838549E+18  6.799532E+07  9.132784E+08  1.818615E+01  6.176914E-23
     60  2.0128985573084940E-01  0.0000000000000000E+00  0.0000000000000000E+00  2.134576E+09  2.031660E+09  1.267447E+27  1.839099E+18  6.940981E+07  9.141061E+08  1.819120E+01  1.407123E-22
     61  2.0228985570849767E-01  0.0000000000000000E+00  0.0000000000000000E+00  2.148566E+09  2.031390E+09  1.267508E+27  1.839220E+18  6.956087E+07  9.141945E+08  1.819212E+01  1.766046E-22
     62  2.0330900218314071E-01  0.0000000000000000E+00  0.0000000000000000E+00  2.163028E+09  2.031108E+09  1.267569E+27  1.839370E+18  6.971618E+07  9.142857E+08  1.819324E+01  2.346902E-22
     63  2.0534729513242680E-01  0.0000000000000000E+00  0.0000000000000000E+00  2.192357E+09  2.030563E+09  1.267715E+27  1.839777E+18  7.002790E+07  9.144731E+08  1.819623E+01  5.072100E-22
     64  2.0942388103099899E-01  0.0000000000000000E+00  0.0000000000000000E+00  2.252088E+09  2.029538E+09  1.268085E+27  1.841279E+18  7.064517E+07  9.148609E+08  1.820703E+01  7.256520E-21
     65  2.1023919821071343E-01  0.0000000000000000E+00  0.0000000000000000E+00  2.264103E+09  2.029324E+09  1.268151E+27  1.841746E+18  7.076560E+07  9.149379E+08  1.821036E+01  1.528895E-20
     66  2.1186983257014230E-01  0.0000000000000000E+00  0.0000000000000000E+00  2.288161E+09  2.028887E+09  1.268277E+27  1.842921E+18  7.100162E+07  9.150908E+08  1.821873E+01  8.302320E-20
     67  2.1513110128900007E-01  0.0000000000000000E+00  0.0000000000000000E+00  2.336468E+09  2.027890E+09  1.268414E+27  1.846598E+18  7.144802E+07  9.153830E+08  1.824527E+01  4.278482E-18
     68  2.1578335503277163E-01  0.0000000000000000E+00  0.0000000000000000E+00  2.346142E+09  2.027672E+09  1.268423E+27  1.847616E+18  7.153142E+07  9.154386E+08  1.825277E+01  9.934042E-18
     69  2.1708786252031473E-01  0.0000000000000000E+00  0.0000000000000000E+00  2.365508E+09  2.027230E+09  1.268430E+27  1.850012E+18  7.169031E+07  9.155474E+08  1.827075E+01  5.477928E-17
     70  2.1969687749540093E-01  0.0000000000000000E+00  0.0000000000000000E+00  2.404414E+09  2.026332E+09  1.268403E+27  1.856594E+18  7.196720E+07  9.157525E+08  1.832273E+01  1.781203E-15
     71  2.2021868049041818E-01  0.0000000000000000E+00  0.0000000000000000E+00  2.412464E+09  2.026129E+09  1.268377E+27  1.858257E+18  7.201661E+07  9.157912E+08  1.833650E+01  3.527601E-15
     72  2.2126228648045265E-01  0.0000000000000000E+00  0.0000000000000000E+00  2.430125E+09  2.025610E+09  1.268255E+27  1.862042E+18  7.211966E+07  9.158693E+08  1.836883E+01  1.364566E-14
     73  2.2334949846052160E-01  0.0000000000000000E+00  0.0000000000000000E+00  2.465987E+09  2.024521E+09  1.267926E+27  1.871843E+18  7.226547E+07  9.160047E+08  1.845915E+01  1.837465E-13
     74  2.2752392242065952E-01  0.0000000000000000E+00  0.0000000000000000E+00  2.535668E+09  2.022134E+09  1.266689E+27  1.902643E+18  7.211780E+07  9.161004E+08  1.880826E+01  1.224578E-11
     75  2.2824421573305950E-01  0.0000000000000000E+00  0.0000000000000000E+00  2.547623E+09  2.021698E+09  1.266383E+27  1.909666E+18  7.201196E+07  9.160865E+08  1.890181E+01  2.155641E-11
     76  2.2947966861030242E-01  0.0000000000000000E+00  0.0000000000000000E+00  2.568312E+09  2.020961E+09  1.265806E+27  1.922985E+18  7.176172E+07  9.160394E+08  1.909306E+01  5.356667E-11
     77  2.3193869318002810E-01  0.0000000000000000E+00  0.0000000000000000E+00  2.610104E+09  2.019436E+09  1.264344E+27  1.954343E+18  7.097184E+07  9.158365E+08  1.961131E+01  2.680752E-10
     78  2.3685674231947948E-01  0.0000000000000000E+00  0.0000000000000000E+00  2.695804E+09  2.016073E+09  1.260048E+27  2.032960E+18  6.826207E+07  9.149694E+08  2.127925E+01  4.621121E-09
     79  2.3762676349816367E-01  0.0000000000000000E+00  0.0000000000000000E+00  2.709448E+09  2.015554E+09  1.259278E+27  2.046269E+18  6.774654E+07  9.147940E+08  2.160938E+01  7.067654E-09
     80  2.3915157553685226E-01  0.0000000000000000E+00  0.0000000000000000E+00  2.736613E+09  2.014539E+09  1.257731E+27  2.072449E+18  6.670727E+07  9.144338E+08  2.229953E+01  1.606056E-08
     81  2.4220119961422948E-01  0.0000000000000000E+00  0.0000000000000000E+00  2.791361E+09  2.012344E+09  1.254514E+27  2.121171E+18  6.472281E+07  9.137086E+08  2.374151E+01  7.543974E-08
     82  2.4281112442970493E-01  0.0000000000000000E+00  0.0000000000000000E+00  2.802320E+09  2.011866E+09  1.253863E+27  2.129943E+18  6.436263E+07  9.135705E+08  2.402614E+01  1.008677E-07
     83  2.4403097406065583E-01  0.0000000000000000E+00  0.0000000000000000E+00  2.824196E+09  2.010907E+09  1.252602E+27  2.146264E+18  6.369369E+07  9.133107E+08  2.457942E+01  1.755526E-07
     84  2.4647067332255759E-01  0.0000000000000000E+00  0.0000000000000000E+00  2.867707E+09  2.009071E+09  1.250353E+27  2.173722E+18  6.258772E+07  9.128781E+08  2.558916E+01  4.658331E-07
     85  2.4695861317493795E-01  0.0000000000000000E+00  0.0000000000000000E+00  2.876364E+09  2.008716E+09  1.249950E+27  2.178392E+18  6.240530E+07  9.128068E+08  2.577190E+01  5.509784E-07
     86  2.4791066736864503E-01  0.0000000000000000E+00  0.0000000000000000E+00  2.893199E+09  2.008034E+09  1.249208E+27  2.186762E+18  6.208605E+07  9.126826E+08  2.610803E+01  7.432094E-07
     87  2.4981477575605920E-01  0.0000000000000000E+00  0.0000000000000000E+00  2.926704E+09  2.006689E+09  1.247882E+27  2.200787E+18  6.158645E+07  9.124908E+08  2.669742E+01  1.219046E-06
     88  2.5362299253088755E-01  0.0000000000000000E+00  0.0000000000000000E+00  2.993023E+09  2.003896E+09  1.245651E+27  2.220073E+18  6.105824E+07  9.122958E+08  2.756408E+01  2.339334E-06
     89  2.5420229825047574E-01  0.0000000000000000E+00  0.0000000000000000E+00  3.003051E+09  2.003460E+09  1.245351E+27  2.222206E+18  6.102250E+07  9.122846E+08  2.766404E+01  2.511452E-06
     90  2.5528259574625684E-01  0.0000000000000000E+00  0.0000000000000000E+00  3.021726E+09  2.002647E+09  1.244824E+27  2.225743E+18  6.098111E+07  9.122752E+08  2.783150E+01  2.815172E-06
     91  2.5744319073781902E-01  0.0000000000000000E+00  0.0000000000000000E+00  3.059012E+09  2.001029E+09  1.243873E+27  2.231367E+18  6.098205E+07  9.122954E+08  2.810214E+01  3.375418E-06
     92  2.5787530973613143E-01  0.0000000000000000E+00  0.0000000000000000E+00  3.066448E+09  2.000702E+09  1.243693E+27  2.232298E+18  6.099349E+07  9.123044E+08  2.814739E+01  3.479499E-06
     93  2.5873954773275631E-01  0.0000000000000000E+00  0.0000000000000000E+00  3.081314E+09  2.000041E+09  1.243339E+27  2.233995E+18  6.102603E+07  9.123264E+08  2.823019E+01  3.682701E-06
     94  2.6046802372600608E-01  0.0000000000000000E+00  0.0000000000000000E+00  3.111021E+09  1.998663E+09  1.242629E+27  2.236824E+18  6.112485E+07  9.123825E+08  2.836881E+01  4.071867E-06
     95  2.6392497571250562E-01  0.0000000000000000E+00  0.0000000000000000E+00  3.170486E+09  1.995674E+09  1.241147E+27  2.240798E+18  6.142536E+07  9.125290E+08  2.856335E+01  4.834820E-06
     96  2.6892603478851901E-01  0.0000000000000000E+00  0.0000000000000000E+00  3.257534E+09  1.991442E+09  1.239302E+27  2.244092E+18  6.201556E+07  9.128347E+08  2.872146E+01  6.006618E-06
     97  2.6951205082882573E-01  0.0000000000000000E+00  0.0000000000000000E+00  3.267927E+09  1.990952E+09  1.239106E+27  2.244355E+18  6.209347E+07  9.128768E+08  2.873388E+01  6.148326E-06
     98  2.7039562120314481E-01  0.0000000000000000E+00  0.0000000000000000E+00  3.283665E+09  1.990201E+09  1.238805E+27  2.244718E+18  6.221363E+07  9.129411E+08  2.875083E+01  6.398423E-06
     99  2.7216276195178296E-01  0.0000000000000000E+00  0.0000000000000000E+00  3.315383E+09  1.988641E+09  1.238170E+27  2.245334E+18  6.246257E+07  9.130719E+08  2.877925E+01  6.980010E-06
    100  2.7569704344905926E-01  0.0000000000000000E+00  0.0000000000000000E+00  3.385587E+09  1.985168E+09  1.236798E+27  2.246210E+18  6.303912E+07  9.133787E+08  2.881958E+01  8.940840E-06
    101  2.7640389974851454E-01  0.0000000000000000E+00  0.0000000000000000E+00  3.405971E+09  1.984178E+09  1.236427E+27  2.246345E+18  6.321239E+07  9.134741E+08  2.882597E+01  9.663484E-06
    102  2.7755165742647736E-01  0.0000000000000000E+00  0.0000000000000000E+00  3.438542E+09  1.982576E+09  1.235822E+27  2.246542E+18  6.348977E+07  9.136268E+08  2.883554E+01  1.141455E-05
    103  2.7984717278240295E-01  0.0000000000000000E+00  0.0000000000000000E+00  3.501512E+09  1.979246E+09  1.234476E+27  2.246849E+18  6.402941E+07  9.139113E+08  2.885139E+01  1.918220E-05
