                           time                    temp                     den                    ener                    sdot                   sneut                   s-snu                      ye                   1-sum
      1  1.0175522000000001E-04  6.8824811000000000E+08  2.1267807000000000E+09  1.655443E+18  7.935628E+12  0.000000E+00  7.935628E+12  5.000000E-01  0.000000E+00 -4.318237E-03 -5.441582E-16
      2  1.0175522001017553E-04  6.8824811000000012E+08  2.1267807000000000E+09  1.655443E+18  7.937036E+12  0.000000E+00  7.937036E+12  5.000000E-01  0.000000E+00 -6.465208E+07 -8.145620E-06
      3  1.0175522003052657E-04  6.8824811000000036E+08  2.1267807000000002E+09  1.655443E+18  7.939849E+12  0.000000E+00  7.939849E+12  5.000000E-01  0.000000E+00 -1.938344E+08 -2.441286E-05
      4  1.0175522007122866E-04  6.8824811000000083E+08  2.1267807000000007E+09  1.655443E+18  7.945466E+12  0.000000E+00  7.945466E+12  5.000000E-01  0.000000E+00 -4.517127E+08 -5.685163E-05
      5  1.0175522015263284E-04  6.8824811000000191E+08  2.1267807000000017E+09  1.655443E+18  7.956656E+12  0.000000E+00  7.956656E+12  5.000000E-01  0.000000E+00 -9.655288E+08 -1.213486E-04
      6  1.0175522031544119E-04  6.8824811000000381E+08  2.1267807000000033E+09  1.655443E+18  7.978870E+12  0.000000E+00  7.978870E+12  5.000000E-01  0.000000E+00 -1.985445E+09 -2.488379E-04
      7  1.0175522064105789E-04  6.8824811000000787E+08  2.1267807000000067E+09  1.655443E+18  8.022632E+12  0.000000E+00  8.022632E+12  5.000000E-01  0.000000E+00 -3.994774E+09 -4.979381E-04
      8  1.0175522129229130E-04  6.8824811000001585E+08  2.1267807000000136E+09  1.655443E+18  8.107560E+12  0.000000E+00  8.107560E+12  5.000000E-01  0.000000E+00 -7.894239E+09 -9.736887E-04
      9  1.0175522259475811E-04  6.8824811000003183E+08  2.1267807000000274E+09  1.655443E+18  8.267506E+12  0.000000E+00  8.267506E+12  5.000000E-01  0.000000E+00 -1.523816E+10 -1.843138E-03
     10  1.0175522519969174E-04  6.8824811000006378E+08  2.1267807000000548E+09  1.655443E+18  8.551279E+12  0.000000E+00  8.551279E+12  5.000000E-01 -4.440892E-16 -2.826759E+10 -3.305656E-03
     11  1.0175523040955900E-04  6.8824811000012767E+08  2.1267807000001099E+09  1.655443E+18  8.998664E+12  0.000000E+00  8.998664E+12  5.000000E-01  0.000000E+00 -4.880919E+10 -5.424049E-03
     12  1.0175524082929354E-04  6.8824811000025547E+08  2.1267807000002198E+09  1.655443E+18  9.558511E+12  0.000000E+00  9.558511E+12  5.000000E-01 -2.220446E-16 -7.451445E+10 -7.795613E-03
     13  1.0175526166876259E-04  6.8824811000051105E+08  2.1267807000004399E+09  1.655443E+18  1.000853E+13  0.000000E+00  1.000853E+13  5.000000E-01  0.000000E+00 -9.517665E+10 -9.509555E-03
     14  1.0175530334770070E-04  6.8824811000102222E+08  2.1267807000008800E+09  1.655443E+18  1.016657E+13  0.000000E+00  1.016657E+13  5.000000E-01 -2.220446E-16 -1.024323E+11 -1.007540E-02
     15  1.0175538670557692E-04  6.8824811000204444E+08  2.1267807000017602E+09  1.655443E+18  1.017752E+13  0.000000E+00  1.017752E+13  5.000000E-01 -2.220446E-16 -1.029340E+11 -1.011386E-02
     16  1.0175555342132937E-04  6.8824811000408912E+08  2.1267807000035205E+09  1.655443E+18  1.017754E+13  0.000000E+00  1.017754E+13  5.000000E-01 -2.220446E-16 -1.029320E+11 -1.011364E-02
     17  1.0175588685283427E-04  6.8824811000817835E+08  2.1267807000070410E+09  1.655443E+18  1.017774E+13  0.000000E+00  1.017774E+13  5.000000E-01 -2.220446E-16 -1.029358E+11 -1.011381E-02
     18  1.0175655371584406E-04  6.8824811001635683E+08  2.1267807000140820E+09  1.655443E+18  1.017814E+13  0.000000E+00  1.017814E+13  5.000000E-01 -2.220446E-16 -1.029433E+11 -1.011416E-02
     19  1.0175788744186364E-04  6.8824811003271377E+08  2.1267807000281641E+09  1.655443E+18  1.017895E+13  0.000000E+00  1.017895E+13  5.000000E-01 -4.440892E-16 -1.029585E+11 -1.011484E-02
     20  1.0176055489390281E-04  6.8824811006542754E+08  2.1267807000563283E+09  1.655443E+18  1.018056E+13  0.000000E+00  1.018056E+13  5.000000E-01 -2.220446E-16 -1.029888E+11 -1.011622E-02
     21  1.0176588979798114E-04  6.8824811013085520E+08  2.1267807001126568E+09  1.655443E+18  1.018379E+13  0.000000E+00  1.018379E+13  5.000000E-01  0.000000E+00 -1.030494E+11 -1.011897E-02
     22  1.0177655960613782E-04  6.8824811026171052E+08  2.1267807002253137E+09  1.655443E+18  1.019023E+13  0.000000E+00  1.019023E+13  5.000000E-01  0.000000E+00 -1.031704E+11 -1.012445E-02
     23  1.0179789922245117E-04  6.8824811052342129E+08  2.1267807004506276E+09  1.655443E+18  1.020309E+13  0.000000E+00  1.020309E+13  5.000000E-01  0.000000E+00 -1.034121E+11 -1.013537E-02
     24  1.0184057845507785E-04  6.8824811104684269E+08  2.1267807009012554E+09  1.655443E+18  1.022872E+13  0.000000E+00  1.022872E+13  5.000000E-01 -2.220446E-16 -1.038938E+11 -1.015707E-02
     25  1.0192593692033123E-04  6.8824811209368539E+08  2.1267807018025107E+09  1.655443E+18  1.027963E+13  0.000000E+00  1.027963E+13  5.000000E-01  0.000000E+00 -1.048504E+11 -1.019982E-02
     26  1.0209665385083798E-04  6.8824811418737102E+08  2.1267807036050215E+09  1.655443E+18  1.038002E+13  0.000000E+00  1.038002E+13  5.000000E-01  2.220446E-16 -1.067369E+11 -1.028291E-02
     27  1.0243808771185149E-04  6.8824811837474215E+08  2.1267807072100430E+09  1.655443E+18  1.057522E+13  0.000000E+00  1.057522E+13  5.000000E-01  1.110223E-16 -1.104048E+11 -1.043995E-02
     28  1.0312095543387850E-04  6.8824812674948442E+08  2.1267807144200859E+09  1.655443E+18  1.094426E+13  0.000000E+00  1.094426E+13  5.000000E-01  1.110223E-16 -1.173392E+11 -1.072153E-02
     29  1.0448669087793252E-04  6.8824814349896896E+08  2.1267807288401721E+09  1.655443E+18  1.160387E+13  0.000000E+00  1.160387E+13  5.000000E-01  3.330669E-16 -1.297332E+11 -1.118016E-02
     30  1.0721816176604055E-04  6.8824817699793804E+08  2.1267807576803441E+09  1.655443E+18  1.265904E+13  0.000000E+00  1.265904E+13  5.000000E-01  1.110223E-16 -1.495583E+11 -1.181435E-02
     31  1.1268110354225661E-04  6.8824824399587631E+08  2.1267808153606882E+09  1.655443E+18  1.401783E+13  0.000000E+00  1.401783E+13  5.000000E-01  2.220446E-16 -1.750835E+11 -1.249006E-02
     32  1.2360698709468874E-04  6.8824837799175262E+08  2.1267809307213764E+09  1.655443E+18  1.517123E+13  0.000000E+00  1.517123E+13  5.000000E-01  3.330669E-16 -1.967390E+11 -1.296790E-02
     33  1.4545875419955299E-04  6.8824864598350537E+08  2.1267811614427531E+09  1.655443E+18  1.562011E+13  0.000000E+00  1.562011E+13  5.000000E-01  4.440892E-16 -2.051485E+11 -1.313361E-02
     34  1.8916228840928150E-04  6.8824918196701097E+08  2.1267816228855062E+09  1.655443E+18  1.565953E+13  0.000000E+00  1.565953E+13  5.000000E-01  5.551115E-16 -2.058719E+11 -1.314675E-02
     35  2.7656935682873854E-04  6.8825029310598123E+08  2.1267828327084303E+09  1.655443E+18  1.566008E+13  0.000000E+00  1.566008E+13  5.000000E-01  4.440892E-16 -2.058756E+11 -1.314652E-02
     36  4.5138349366765263E-04  6.8825269535266399E+08  2.1267862492486572E+09  1.655443E+18  1.566154E+13  0.000000E+00  1.566154E+13  5.000000E-01  3.330669E-16 -2.058940E+11 -1.314647E-02
     37  8.0101176734548069E-04  6.8825831970181513E+08  2.1267970098127878E+09  1.655443E+18  1.566492E+13  0.000000E+00  1.566492E+13  5.000000E-01  3.330669E-16 -2.059382E+11 -1.314646E-02
     38  1.5002683147011370E-03  6.8827186183989644E+08  2.1268296424759440E+09  1.655443E+18  1.567344E+13  0.000000E+00  1.567344E+13  5.000000E-01  3.330669E-16 -2.060470E+11 -1.314625E-02
     39  2.8987814094124497E-03  6.8829233330524385E+08  2.1268577285863836E+09  1.655443E+18  1.568562E+13  0.000000E+00  1.568562E+13  5.000000E-01  5.551115E-16 -2.062048E+11 -1.314611E-02
     40  5.6413413480415559E-03  6.8831486211572659E+08  2.1267758561879754E+09  1.655443E+18  1.569717E+13  0.000000E+00  1.569717E+13  5.000000E-01  2.220446E-16 -2.063410E+11 -1.314511E-02
     41  1.1126461225299769E-02  6.8832800156065679E+08  2.1263264596706975E+09  1.655443E+18  1.569572E+13  0.000000E+00  1.569572E+13  5.000000E-01  6.661338E-16 -2.062882E+11 -1.314296E-02
     42  2.1126461001782351E-02  6.8745150512776947E+08  2.1203062052334924E+09  1.655443E+18  1.509632E+13  0.000000E+00  1.509632E+13  5.000000E-01  4.440892E-16 -1.980870E+11 -1.312154E-02
     43  3.1126460778264933E-02  6.8746872719193292E+08  2.1196279562989976E+09  1.655443E+18  1.509365E+13  0.000000E+00  1.509365E+13  5.000000E-01  5.551115E-16 -1.979877E+11 -1.311728E-02
     44  4.1126460554747515E-02  6.8757500172707379E+08  2.1192663176673539E+09  1.655444E+18  1.514419E+13  0.000000E+00  1.514419E+13  5.000000E-01  3.330669E-16 -1.986131E+11 -1.311481E-02
     45  5.1126460331230097E-02  6.8762769277872360E+08  2.1184947199430072E+09  1.655444E+18  1.515743E+13  0.000000E+00  1.515743E+13  5.000000E-01  3.330669E-16 -1.987341E+11 -1.311133E-02
     46  6.1126460107712680E-02  6.8761369970139158E+08  2.1171999699172475E+09  1.655444E+18  1.512371E+13  0.000000E+00  1.512371E+13  5.000000E-01  4.440892E-16 -1.982206E+11 -1.310661E-02
     47  7.1126459884195262E-02  6.8768746519115329E+08  2.1166228001310465E+09  1.655444E+18  1.515238E+13  0.000000E+00  1.515238E+13  5.000000E-01  4.440892E-16 -1.985505E+11 -1.310358E-02
     48  8.1126459660677844E-02  6.8780580620754290E+08  2.1164743005550094E+09  1.655444E+18  1.521450E+13  0.000000E+00  1.521450E+13  5.000000E-01  6.661338E-16 -1.993315E+11 -1.310142E-02
     49  9.1126459437160426E-02  6.8791820234809887E+08  2.1165952648776095E+09  1.655444E+18  1.528045E+13  0.000000E+00  1.528045E+13  5.000000E-01  5.551115E-16 -2.001609E+11 -1.309915E-02
     50  1.0112645921364301E-01  6.8796824366919649E+08  2.1167143618742745E+09  1.655444E+18  1.531438E+13  0.000000E+00  1.531438E+13  5.000000E-01  3.330669E-16 -2.005525E+11 -1.309570E-02
     51  1.1112645899012559E-01  6.8756677068702531E+08  2.1148324553976665E+09  1.655445E+18  1.506730E+13  0.000000E+00  1.506730E+13  5.000000E-01  4.440892E-16 -1.971351E+11 -1.308364E-02
     52  1.2112645876660817E-01  6.8738375435760796E+08  2.1150004252584734E+09  1.655445E+18  1.498332E+13  0.000000E+00  1.498332E+13  5.000000E-01  6.661338E-16 -1.959192E+11 -1.307582E-02
     53  1.3112645854309074E-01  6.8769178348546636E+08  2.1191730640626607E+09  1.655445E+18  1.524742E+13  0.000000E+00  1.524742E+13  5.000000E-01  4.440892E-16 -1.993970E+11 -1.307743E-02
     54  1.4112645831957332E-01  6.8706814300671947E+08  2.1185342175593944E+09  1.655445E+18  1.491904E+13  0.000000E+00  1.491904E+13  5.000000E-01  6.661338E-16 -1.948603E+11 -1.306118E-02
     55  1.5112645809605590E-01  6.8614838285152471E+08  2.1179850042378113E+09  1.655445E+18  1.445389E+13  0.000000E+00  1.445389E+13  5.000000E-01  4.440892E-16 -1.884711E+11 -1.303947E-02
     56  1.6112645787253849E-01  6.8512296319570184E+08  2.1179365027087064E+09  1.655445E+18  1.396343E+13  0.000000E+00  1.396343E+13  5.000000E-01  3.330669E-16 -1.817440E+11 -1.301572E-02
     57  1.7112645764902107E-01  6.8383726845864022E+08  2.1178438208145225E+09  1.655445E+18  1.336892E+13  0.000000E+00  1.336892E+13  5.000000E-01  4.440892E-16 -1.736237E+11 -1.298712E-02
     58  1.8112645742550365E-01  6.8223757303564239E+08  2.1178748496634960E+09  1.655446E+18  1.266477E+13  0.000000E+00  1.266477E+13  5.000000E-01  6.661338E-16 -1.640432E+11 -1.295272E-02
     59  1.9112645720198623E-01  6.8025750506601906E+08  2.1177828902370467E+09  1.655446E+18  1.183844E+13  0.000000E+00  1.183844E+13  5.000000E-01  7.771561E-16 -1.528486E+11 -1.291121E-02
     60  2.0112645697846881E-01  6.7784970621792603E+08  2.1178388116603720E+09  1.655446E+18  1.090472E+13  0.000000E+00  1.090472E+13  5.000000E-01  4.440892E-16 -1.402531E+11 -1.286169E-02
     61  2.1112645675495140E-01  6.7490845173473144E+08  2.1172358505033135E+09  1.655446E+18  9.847389E+12  0.000000E+00  9.847389E+12  5.000000E-01  8.881784E-16 -1.260680E+11 -1.280218E-02
     62  2.2112645653143398E-01  6.7141581429855525E+08  2.1170215243134034E+09  1.655446E+18  8.725012E+12  0.000000E+00  8.725012E+12  5.000000E-01  9.992007E-16 -1.110900E+11 -1.273236E-02
     63  2.3112645630791656E-01  6.6723704701473129E+08  2.1163526355947204E+09  1.655446E+18  7.536017E+12  0.000000E+00  7.536017E+12  5.000000E-01  1.110223E-15 -9.532717E+10 -1.264954E-02
     64  2.4112645608439914E-01  6.6221145593115950E+08  2.1156479275739141E+09  1.655446E+18  6.310621E+12  0.000000E+00  6.310621E+12  5.000000E-01  7.771561E-16 -7.920362E+10 -1.255084E-02
     65  2.5112645586088173E-01  6.5624217976376724E+08  2.1151411410312929E+09  1.655446E+18  5.103514E+12  0.000000E+00  5.103514E+12  5.000000E-01  8.881784E-16 -6.345888E+10 -1.243435E-02
     66  2.6112645563736431E-01  6.4915754820738947E+08  2.1142687115597465E+09  1.655446E+18  3.953393E+12  0.000000E+00  3.953393E+12  5.000000E-01  9.992007E-16 -4.861356E+10 -1.229667E-02
     67  2.7112645541384689E-01  6.4090355347972870E+08  2.1134597123483624E+09  1.655446E+18  2.924922E+12  0.000000E+00  2.924922E+12  5.000000E-01  1.110223E-15 -3.549824E+10 -1.213647E-02
     68  2.8112645519032947E-01  6.4079187359942365E+08  2.1118720850818572E+09  1.655446E+18  2.903764E+12  0.000000E+00  2.903764E+12  5.000000E-01  1.110223E-16 -3.521927E+10 -1.212884E-02
     69  2.9112645496681205E-01  6.4533005766171300E+08  2.1102104380940354E+09  1.655446E+18  3.416752E+12  0.000000E+00  3.416752E+12  5.000000E-01  4.440892E-16 -4.173739E+10 -1.221552E-02
     70  3.0112645474329464E-01  6.4986149393353343E+08  2.1082546435957642E+09  1.655446E+18  4.013042E+12  0.000000E+00  4.013042E+12  5.000000E-01  3.330669E-16 -4.937060E+10 -1.230254E-02
     71  3.1112645451977722E-01  6.5404675098345637E+08  2.1050216780119991E+09  1.655446E+18  4.639702E+12  0.000000E+00  4.639702E+12  5.000000E-01  2.220446E-16 -5.745339E+10 -1.238299E-02
     72  3.2112645429625980E-01  6.5835668568440914E+08  2.1023738641722047E+09  1.655446E+18  5.387336E+12  0.000000E+00  5.387336E+12  5.000000E-01  3.330669E-16 -6.715259E+10 -1.246490E-02
     73  3.3112645407274238E-01  6.6260985165152156E+08  2.1004104015729511E+09  1.655447E+18  6.243046E+12  0.000000E+00  6.243046E+12  5.000000E-01  1.110223E-16 -7.832204E+10 -1.254548E-02
     74  3.4112645384922496E-01  6.6629998084865415E+08  2.0963913133552771E+09  1.655447E+18  7.062137E+12  0.000000E+00  7.062137E+12  5.000000E-01  1.110223E-16 -8.909122E+10 -1.261533E-02
     75  3.5112645362570755E-01  6.6952667236722326E+08  2.0920574676533527E+09  1.655447E+18  7.850371E+12  0.000000E+00  7.850371E+12  5.000000E-01  4.440892E-16 -9.951102E+10 -1.267596E-02
     76  3.6112645340219013E-01  6.7353483825365591E+08  2.0937857567701640E+09  1.655447E+18  9.050651E+12  0.000000E+00  9.050651E+12  5.000000E-01  3.330669E-16 -1.154038E+11 -1.275088E-02
     77  3.7112645317867271E-01  6.7969489237812173E+08  2.0903743479635625E+09  1.655447E+18  1.113100E+13  0.000000E+00  1.113100E+13  5.000000E-01  1.110223E-16 -1.432409E+11 -1.286865E-02
     78  3.8112645295515529E-01  6.8131005653553641E+08  2.0794191090427470E+09  1.655447E+18  1.155533E+13  0.000000E+00  1.155533E+13  5.000000E-01  4.440892E-16 -1.490134E+11 -1.289563E-02
     79  3.9112645273163787E-01  6.8413520509153795E+08  2.0791006253730826E+09  1.655447E+18  1.272139E+13  0.000000E+00  1.272139E+13  5.000000E-01  3.330669E-16 -1.647122E+11 -1.294766E-02
     80  4.0112645250812046E-01  6.9037594943737829E+08  2.0804373451845448E+09  1.655447E+18  1.574775E+13  0.000000E+00  1.574775E+13  5.000000E-01  3.330669E-16 -2.057000E+11 -1.306219E-02
     81  4.1112645228460304E-01  6.9539853811470425E+08  2.0696649407301512E+09  1.655447E+18  1.831112E+13  0.000000E+00  1.831112E+13  5.000000E-01  4.440892E-16 -2.408226E+11 -1.315172E-02
     82  4.2112645206108562E-01  7.1408664842942882E+08  2.0570597576953721E+09  1.655448E+18  3.312375E+13  0.000000E+00  3.312375E+13  5.000000E-01  2.220446E-16 -4.468339E+11 -1.348983E-02
     83  4.3112645183756820E-01  7.4232333553982711E+08  2.0559788381768920E+09  1.655448E+18  8.161444E+13  0.000000E+00  8.161444E+13  5.000000E-01  2.220446E-16 -1.147166E+12 -1.405592E-02
     84  4.4112645161405079E-01  7.7574034105179441E+08  2.0578844466601274E+09  1.655450E+18  2.246678E+14  0.000000E+00  2.246678E+14  5.000000E-01  0.000000E+00 -3.293229E+12 -1.465822E-02
     85  4.4112645261405076E-01  7.7574034468223572E+08  2.0578844465732994E+09  1.655450E+18  2.248313E+14  0.000000E+00  2.248313E+14  5.000000E-01  0.000000E+00 -3.301699E+12 -1.468523E-02
     86  4.4112645461405070E-01  7.7574035194311833E+08  2.0578844463996437E+09  1.655450E+18  2.248307E+14  0.000000E+00  2.248307E+14  5.000000E-01  1.110223E-16 -3.301702E+12 -1.468528E-02
     87  4.4112645861405059E-01  7.7574036646488357E+08  2.0578844460523317E+09  1.655450E+18  2.248285E+14  0.000000E+00  2.248285E+14  5.000000E-01  0.000000E+00 -3.301655E+12 -1.468522E-02
     88  4.4112646661405042E-01  7.7574039550841427E+08  2.0578844453577080E+09  1.655450E+18  2.248240E+14  0.000000E+00  2.248240E+14  5.000000E-01  3.330669E-16 -3.301561E+12 -1.468510E-02
     89  4.4112648261405007E-01  7.7574045359547567E+08  2.0578844439684606E+09  1.655450E+18  2.248150E+14  0.000000E+00  2.248150E+14  5.000000E-01  3.330669E-16 -3.301375E+12 -1.468485E-02
     90  4.4112651461404934E-01  7.7574056976959825E+08  2.0578844411899660E+09  1.655450E+18  2.247972E+14  0.000000E+00  2.247972E+14  5.000000E-01 -2.220446E-16 -3.301005E+12 -1.468436E-02
     91  4.4112657861404792E-01  7.7574080211784363E+08  2.0578844356329763E+09  1.655450E+18  2.247624E+14  0.000000E+00  2.247624E+14  5.000000E-01  0.000000E+00 -3.300279E+12 -1.468341E-02
     92  4.4112670661404507E-01  7.7574126681433439E+08  2.0578844245189974E+09  1.655450E+18  2.246953E+14  0.000000E+00  2.246953E+14  5.000000E-01  4.440892E-16 -3.298880E+12 -1.468157E-02
     93  4.4112696261403933E-01  7.7574219620731568E+08  2.0578844022910392E+09  1.655450E+18  2.245710E+14  0.000000E+00  2.245710E+14  5.000000E-01  0.000000E+00 -3.296285E+12 -1.467814E-02
     94  4.4112747461402790E-01  7.7574405499327850E+08  2.0578843578351231E+09  1.655450E+18  2.243573E+14  0.000000E+00  2.243573E+14  5.000000E-01  0.000000E+00 -3.291816E+12 -1.467220E-02
     95  4.4112849861400499E-01  7.7574777256520391E+08  2.0578842689232905E+09  1.655450E+18  2.240424E+14  0.000000E+00  2.240424E+14  5.000000E-01 -2.220446E-16 -3.285192E+12 -1.466326E-02
     96  4.4113054661395923E-01  7.7575520770905483E+08  2.0578840910996258E+09  1.655450E+18  2.237046E+14  0.000000E+00  2.237046E+14  5.000000E-01  2.220446E-16 -3.277959E+12 -1.465307E-02
     97  4.4113464261386770E-01  7.7577007799675667E+08  2.0578837354522960E+09  1.655450E+18  2.235419E+14  0.000000E+00  2.235419E+14  5.000000E-01  2.220446E-16 -3.274067E+12 -1.464633E-02
     98  4.4114283461368459E-01  7.7579981857216024E+08  2.0578830241576366E+09  1.655450E+18  2.236722E+14  0.000000E+00  2.236722E+14  5.000000E-01  1.110223E-16 -3.275695E+12 -1.464507E-02
     99  4.4115921861331836E-01  7.7585929972296739E+08  2.0578816015683177E+09  1.655450E+18  2.240625E+14  0.000000E+00  2.240625E+14  5.000000E-01  3.330669E-16 -3.281636E+12 -1.464607E-02
    100  4.4119198661258596E-01  7.7597826202458179E+08  2.0578787563896799E+09  1.655450E+18  2.248476E+14  0.000000E+00  2.248476E+14  5.000000E-01  4.440892E-16 -3.293603E+12 -1.464816E-02
    101  4.4125752261112111E-01  7.7621618662781036E+08  2.0578730660324044E+09  1.655450E+18  2.264242E+14  0.000000E+00  2.264242E+14  5.000000E-01  3.330669E-16 -3.317631E+12 -1.465228E-02
    102  4.4138859460819141E-01  7.7669203583426762E+08  2.0578616853178535E+09  1.655450E+18  2.296106E+14  0.000000E+00  2.296106E+14  5.000000E-01  4.440892E-16 -3.366220E+12 -1.466056E-02
    103  4.4165073860233206E-01  7.7762715202531981E+08  2.0578120035844026E+09  1.655450E+18  2.359919E+14  0.000000E+00  2.359919E+14  5.000000E-01  4.440892E-16 -3.463628E+12 -1.467689E-02
